time(s),TGS 822,TGS 2612,TGS 2620,TGS 832,TGS 826 ,TGS 2603,TGS 2600,TGS 813,Temp,Humid
0.0,1465.5,319.125,2298.75,359.25,1749.1875,531.1875,1751.25,536.4375,37.04,40.07
0.1,1465.875,319.125,2298.9375,359.4375,1749.375,531.5625,1751.4375,535.875,37.03,40.16
0.2,1466.25,319.125,2299.125,359.4375,1749.75,531.75,1751.8125,535.875,37.03,40.17
0.3,1466.625,319.3125,2299.3125,359.625,1749.9375,531.9375,1751.8125,535.875,37.03,40.17
0.4,1466.8125,319.3125,2299.5,359.625,1750.125,532.125,1752,536.25,37,40.18
0.5,1467.1875,319.3125,2299.6875,360,1750.5,532.5,1752,536.4375,37.03,40.22
0.6,1467.375,319.3125,2299.875,360,1750.6875,532.6875,1752.375,535.875,37.04,40.23
0.7,1467.9375,319.3125,2300.0625,360,1750.875,532.875,1752.5625,536.4375,37.01,40.22
0.8,1468.3125,319.3125,2300.4375,360.1875,1751.25,533.0625,1752.75,536.8125,37.01,40.27
0.9,1468.6875,319.3125,2300.625,360.375,1751.4375,533.4375,1752.75,536.25,37.01,40.24
1.0,1469.25,319.3125,2300.8125,360.5625,1751.625,533.625,1752.9375,536.4375,37,40.33
1.1,1469.625,319.3125,2301.1875,360.5625,1752,534,1753.3125,537.1875,37.03,40.26
1.2,1470,319.3125,2301.375,360.75,1752.1875,534.1875,1753.5,536.4375,37.01,40.27
1.3,1470.5625,319.3125,2301.75,361.125,1752.5625,534.5625,1753.6875,536.0625,37.04,40.35
1.4,1470.9375,319.3125,2302.125,360.9375,1752.75,534.75,1754.0625,536.8125,37.01,40.37
1.5,1471.3125,319.3125,2302.5,361.125,1752.9375,535.125,1754.4375,536.8125,37.01,40.37
1.6,1471.6875,319.3125,2302.875,361.125,1753.125,535.5,1754.625,535.6875,37.03,40.39
1.7,1472.0625,319.3125,2303.25,361.3125,1753.3125,535.875,1754.8125,536.625,37.04,40.41
1.8,1472.625,319.3125,2303.625,361.3125,1753.6875,535.875,1755.1875,536.625,37.03,40.44
1.9,1473,319.3125,2304,361.5,1753.875,536.25,1755.375,536.625,37.03,40.44
2.0,1473.375,319.3125,2304.375,361.6875,1754.0625,536.4375,1755.5625,537.1875,37.04,40.45
2.1,1473.75,319.3125,2304.75,361.6875,1754.0625,536.625,1755.9375,536.4375,37.01,40.48
2.2,1474.125,319.3125,2305.125,361.6875,1754.25,537,1755.9375,536.4375,37.03,40.48
2.3,1474.5,319.3125,2305.5,361.875,1754.25,537.1875,1756.3125,536.0625,37.04,40.55
2.4,1474.875,319.5,2305.875,361.6875,1754.4375,537.375,1756.5,536.4375,37.01,40.49
2.5,1475.0625,319.3125,2306.25,361.875,1754.625,537.375,1756.6875,536.4375,37.03,40.55
2.6,1475.25,319.5,2306.625,361.875,1754.625,537.75,1756.6875,535.3125,37.03,40.61
2.7,1475.4375,319.3125,2307,361.875,1754.8125,537.9375,1757.0625,536.4375,37.04,40.65
2.8,1475.4375,319.5,2307.375,361.875,1754.8125,537.9375,1757.0625,536.25,37.03,40.64
2.9,1475.4375,319.5,2307.375,361.875,1754.625,537.9375,1757.0625,536.4375,37.03,40.67
3.0,1475.4375,319.5,2307.75,361.6875,1754.625,538.125,1757.25,536.4375,37.05,40.61
3.1,1475.4375,319.3125,2307.9375,361.6875,1754.4375,538.125,1757.25,536.0625,37.03,40.67
3.2,1475.25,319.3125,2308.3125,361.5,1754.4375,538.125,1757.0625,536.8125,37.03,40.65
3.3,1475.25,319.3125,2308.5,361.5,1754.25,538.125,1757.25,535.6875,37.04,40.67
3.4,1474.875,319.3125,2308.875,361.3125,1754.0625,538.125,1757.25,537,37.03,40.68
3.5,1474.6875,319.5,2308.875,361.3125,1754.0625,537.9375,1757.0625,536.25,37.03,40.71
3.6,1474.3125,319.3125,2308.875,361.125,1753.875,537.9375,1756.875,536.25,37.03,40.71
3.7,1474.125,319.3125,2309.0625,361.125,1753.6875,537.9375,1756.6875,537.375,37.05,40.72
3.8,1473.75,319.3125,2308.875,360.9375,1753.5,537.9375,1756.5,537.1875,37.01,40.74
3.9,1473.375,319.3125,2308.875,360.9375,1753.3125,537.75,1756.5,536.0625,37.04,40.73
4.0,1473,319.3125,2308.875,360.9375,1753.125,537.5625,1756.3125,537.375,37.03,40.7
4.1,1472.8125,319.3125,2308.875,360.75,1752.9375,537.375,1756.125,536.8125,37.04,40.69
4.2,1472.4375,319.3125,2308.875,360.5625,1752.75,537.375,1756.125,536.8125,37,40.67
4.3,1471.875,319.3125,2308.6875,360.375,1752.75,537.375,1756.125,537,37.04,40.73
4.4,1471.6875,319.3125,2308.5,360.375,1752.5625,537,1755.9375,537.1875,37.03,40.64
4.5,1471.125,319.3125,2308.3125,360.375,1752.375,537,1755.5625,536.8125,37.04,40.69
4.6,1470.75,319.3125,2308.125,360.1875,1752.1875,536.8125,1755,537,37.05,40.66
4.7,1470.1875,319.3125,2307.9375,360,1752,536.625,1755,537.1875,37.04,40.67
4.8,1469.8125,319.3125,2307.75,360,1751.8125,536.4375,1754.625,536.8125,37.04,40.64
4.9,1469.4375,319.125,2307.5625,359.8125,1751.8125,536.4375,1754.4375,537.1875,37.04,40.67
5.0,1468.875,319.3125,2307.375,359.8125,1751.625,536.25,1754.0625,536.8125,37.03,40.67
5.1,1468.5,319.125,2307,359.625,1751.4375,536.0625,1753.6875,536.8125,37.04,40.61
5.2,1468.125,319.3125,2306.625,359.625,1751.4375,535.875,1753.5,536.8125,37.05,40.6
5.3,1467.75,319.3125,2306.4375,359.4375,1751.25,535.875,1753.3125,536.0625,37.03,40.6
5.4,1467.1875,319.125,2306.0625,359.4375,1751.25,535.6875,1752.9375,536.625,37.05,40.58
5.5,1466.8125,319.125,2305.6875,359.25,1751.0625,535.5,1752.5625,536.8125,37.04,40.61
5.6,1466.4375,319.125,2305.5,359.0625,1750.875,535.3125,1752.1875,535.875,37.01,40.59
5.7,1465.875,319.125,2305.3125,359.25,1750.875,535.3125,1751.8125,537.1875,37.03,40.58
5.8,1465.5,319.125,2304.9375,359.0625,1750.6875,535.125,1751.4375,536.4375,37.03,40.58
5.9,1464.9375,319.125,2304.375,358.875,1750.6875,534.9375,1751.25,536.25,37.04,40.54
6.0,1464.375,318.9375,2304,358.875,1750.6875,534.9375,1750.875,537.5625,37.03,40.55
6.1,1464,319.125,2303.625,358.6875,1750.5,534.5625,1750.5,536.8125,37.04,40.51
6.2,1463.4375,319.125,2303.25,358.6875,1750.5,534.5625,1750.125,535.3125,37.03,40.52
6.3,1463.0625,318.9375,2303.0625,358.5,1750.3125,534.375,1749.75,537.75,37.05,40.54
6.4,1462.6875,319.125,2302.5,358.5,1750.3125,534.1875,1749.5625,536.4375,37.04,40.52
6.5,1462.125,318.9375,2302.3125,358.3125,1750.3125,534.1875,1749.375,536.25,37.05,40.48
6.6,1461.75,318.9375,2301.75,358.3125,1750.125,534,1749,536.8125,37.03,40.47
6.7,1461.1875,318.9375,2301.375,358.3125,1750.3125,533.8125,1748.8125,536.8125,37.04,40.45
6.8,1460.8125,318.9375,2301,358.3125,1750.125,533.8125,1748.625,536.625,37.05,40.52
6.9,1460.25,318.9375,2300.625,358.125,1750.125,533.625,1747.875,537.1875,37.05,40.44
7.0,1460.0625,319.125,2300.25,358.125,1750.125,533.625,1747.875,536.625,37.04,40.39
7.1,1459.5,318.9375,2299.875,357.9375,1750.125,533.4375,1747.5,536.8125,37.04,40.41
7.2,1459.125,318.9375,2299.5,357.9375,1750.125,533.25,1747.125,537.375,37.04,40.41
7.3,1458.75,318.9375,2299.125,357.9375,1750.125,533.25,1746.75,536.625,37.04,40.41
7.4,1458.375,318.9375,2298.75,357.9375,1750.125,533.0625,1746.375,536.8125,37.05,40.38
7.5,1457.8125,318.9375,2298.375,357.9375,1749.9375,533.0625,1746,537.375,37.01,40.44
7.6,1457.4375,318.9375,2297.8125,357.75,1749.9375,532.875,1745.625,537.375,37.05,40.35
7.7,1457.0625,318.9375,2297.625,357.5625,1749.9375,532.875,1745.4375,536.625,37.01,40.33
7.8,1456.6875,318.9375,2297.25,357.5625,1749.9375,532.6875,1745.0625,537.375,37.05,40.35
7.9,1456.3125,318.75,2296.6875,357.5625,1749.9375,532.6875,1744.875,537.375,37.07,40.32
8.0,1455.9375,318.9375,2296.3125,357.375,1750.125,532.6875,1744.5,536.8125,37.04,40.29
8.1,1455.5625,318.9375,2296.125,357.375,1749.9375,532.5,1744.3125,537,37.05,40.35
8.2,1455.1875,318.9375,2295.75,357.375,1749.9375,532.5,1743.9375,537.75,37.03,40.36
8.3,1454.8125,318.75,2295.375,357.375,1749.9375,532.3125,1743.5625,537.9375,37.05,40.28
8.4,1454.4375,318.9375,2295,357.1875,1749.9375,532.3125,1743.1875,537.75,37.05,40.29
8.5,1454.0625,318.75,2294.625,357.1875,1749.9375,532.125,1743,537.1875,37.04,40.28
8.6,1453.6875,318.75,2294.4375,357,1749.9375,532.125,1742.625,537.5625,37.05,40.31
8.7,1453.3125,318.75,2294.0625,357,1749.9375,531.9375,1742.4375,537.375,37.03,40.26
8.8,1452.75,318.75,2293.6875,356.8125,1749.75,531.9375,1742.25,537.375,37.05,40.23
8.9,1452.5625,318.75,2293.3125,356.8125,1749.75,531.75,1742.0625,537,37.04,40.22
9.0,1452.1875,318.75,2292.9375,356.8125,1749.75,531.75,1741.6875,537.9375,37.07,40.25
9.1,1451.8125,318.75,2292.75,356.8125,1749.75,531.5625,1741.3125,536.4375,37.04,40.22
9.2,1451.25,318.75,2292.375,356.625,1749.75,531.375,1740.9375,537.9375,37.04,40.19
9.3,1451.0625,318.75,2292,356.625,1749.5625,531.375,1740.75,537,37.04,40.23
9.4,1450.6875,318.75,2291.625,356.625,1749.375,531.375,1740.5625,537.9375,37.04,40.22
9.5,1450.125,318.75,2291.4375,356.625,1749.375,531.1875,1740.1875,538.6875,37.04,40.25
9.6,1449.75,318.75,2291.0625,356.4375,1749.1875,531,1739.8125,537.9375,37.04,40.2
9.7,1449.375,318.75,2290.6875,356.4375,1749.1875,530.8125,1739.4375,537.5625,37.04,40.22
9.8,1449.1875,318.75,2290.3125,356.4375,1749.1875,530.625,1739.4375,537.9375,37.05,40.22
9.9,1448.625,318.75,2289.9375,356.4375,1749.1875,530.625,1739.0625,537.75,37.04,40.19
10.0,1448.25,318.5625,2289.75,356.25,1749,530.625,1738.875,537.9375,37.05,40.16
10.1,1447.875,318.75,2289.1875,356.25,1749,530.4375,1738.6875,537.375,37.05,40.15
10.2,1447.6875,318.5625,2289,356.25,1749,530.25,1738.5,537,37.05,40.18
10.3,1447.125,318.75,2288.625,356.25,1748.8125,530.25,1738.125,537.5625,37.05,40.18
10.4,1446.9375,318.5625,2288.4375,356.0625,1748.8125,530.0625,1737.9375,537.5625,37.04,40.18
10.5,1446.5625,318.5625,2288.0625,356.0625,1748.625,529.875,1737.5625,537.375,37.07,40.18
10.6,1446.1875,318.5625,2287.875,356.0625,1748.625,529.875,1737.1875,537.5625,37.05,40.2
10.7,1445.8125,318.5625,2287.5,355.875,1748.4375,529.6875,1737,537.75,37.04,40.2
10.8,1445.4375,318.5625,2287.3125,356.0625,1748.25,529.5,1736.625,537.1875,37.04,40.16
10.9,1445.0625,318.5625,2286.9375,355.875,1748.25,529.5,1736.25,538.125,37.05,40.19
11.0,1444.875,318.5625,2286.75,355.875,1748.0625,529.3125,1736.0625,537.1875,37.05,40.12
11.1,1444.5,318.5625,2286.375,355.875,1748.0625,529.3125,1735.875,537.5625,37.05,40.13
11.2,1444.125,318.5625,2286,355.875,1748.0625,529.125,1735.6875,537.1875,37.05,40.12
11.3,1443.75,318.5625,2285.8125,355.6875,1748.0625,528.9375,1735.3125,537.5625,37.05,40.12
11.4,1443.5625,318.5625,2285.4375,355.6875,1747.875,528.9375,1735.125,537.75,37.03,40.13
11.5,1443.1875,318.5625,2285.25,355.875,1747.875,528.75,1734.75,537.375,37.04,40.1
11.6,1442.8125,318.375,2284.875,355.6875,1747.6875,528.5625,1734.75,537.5625,37.05,40.1
11.7,1442.625,318.5625,2284.6875,355.6875,1747.875,528.5625,1734.375,536.8125,37.04,40.09
11.8,1442.25,318.5625,2284.5,355.6875,1747.875,528.375,1734,537,37.04,40.1
11.9,1441.875,318.375,2284.125,355.6875,1747.6875,528.375,1733.8125,536.625,37.04,40.09
12.0,1441.6875,318.5625,2283.9375,355.6875,1747.6875,528.1875,1733.25,538.125,37.05,40.07
12.1,1441.3125,318.375,2283.5625,355.5,1747.5,528.1875,1733.25,537.9375,37.03,40.07
12.2,1441.125,318.5625,2283.1875,355.5,1747.5,528.1875,1732.875,537.5625,37.07,40.09
12.3,1440.75,318.375,2283,355.5,1747.5,528,1732.6875,537.1875,37.05,40.07
12.4,1440.375,318.375,2282.8125,355.5,1747.5,528,1732.3125,537.375,37.03,40.06
12.5,1440.1875,318.375,2282.4375,355.5,1747.3125,527.8125,1732.125,537.75,37.05,40.03
12.6,1440,318.375,2282.0625,355.3125,1747.5,527.8125,1731.9375,537,37.04,40.07
12.7,1439.625,318.375,2281.875,355.3125,1747.3125,527.625,1731.75,537.1875,37.05,40.03
12.8,1439.25,318.375,2281.6875,355.3125,1747.3125,527.4375,1731.375,537.1875,37.05,40.03
12.9,1439.0625,318.375,2281.5,355.3125,1747.125,527.4375,1731.1875,537.1875,37.04,40.02
13.0,1438.6875,318.375,2281.125,355.125,1746.9375,527.4375,1730.8125,537.9375,37.04,40.1
13.1,1438.5,318.375,2280.9375,355.3125,1747.125,527.25,1730.8125,537.1875,37.05,40.02
13.2,1438.125,318.375,2280.75,355.125,1746.9375,527.0625,1730.4375,537.1875,37.05,40.07
13.3,1437.9375,318.375,2280.5625,355.125,1746.9375,527.0625,1730.0625,537.5625,37.07,40.06
13.4,1437.5625,318.375,2280.1875,355.3125,1746.75,527.0625,1729.875,538.3125,37.05,40.06
13.5,1437.375,318.375,2280,355.125,1746.9375,526.875,1729.5,537.1875,37.05,40.04
13.6,1437.1875,318.375,2279.8125,355.125,1746.75,526.875,1729.5,538.125,37.05,40.09
13.7,1436.8125,318.375,2279.4375,355.125,1746.9375,526.875,1729.125,537.75,37.04,40.03
13.8,1436.625,318.375,2279.25,354.9375,1746.75,526.6875,1728.9375,537.5625,37.07,40.07
13.9,1436.4375,318.1875,2279.0625,354.9375,1746.75,526.875,1728.75,537.375,37.07,40.06
14.0,1436.0625,318.375,2278.875,354.9375,1746.75,526.6875,1728.5625,537.1875,37.04,40.07
14.1,1435.875,318.375,2278.5,354.9375,1746.75,526.5,1728.1875,537.9375,37.05,40.07
14.2,1435.5,318.375,2278.5,354.9375,1746.75,526.5,1728,537.5625,37.04,40.02
14.3,1435.3125,318.375,2278.3125,354.9375,1746.5625,526.5,1728.1875,538.5,37.05,40.02
14.4,1435.125,318.1875,2277.9375,354.9375,1746.5625,526.5,1728.1875,537.5625,37.05,40.03
14.5,1434.9375,318.1875,2277.9375,354.9375,1746.75,526.5,1727.8125,538.3125,37.04,40.09
14.6,1434.75,318.1875,2277.75,354.9375,1746.75,526.3125,1727.625,537.9375,37.07,40.05
14.7,1434.5625,318.375,2277.5625,354.9375,1746.5625,526.3125,1727.25,537.5625,37.05,40.04
14.8,1434.375,318.1875,2277.1875,354.9375,1746.5625,526.3125,1726.875,536.8125,37.03,39.98
14.9,1434,318.375,2277,354.9375,1746.5625,526.125,1726.5,537.9375,37.05,40.03
15.0,1433.8125,318.1875,2276.8125,354.75,1746.5625,526.125,1726.5,537.5625,37.04,40.02
15.1,1433.4375,318.1875,2276.625,354.75,1746.375,525.9375,1726.125,537.9375,37.04,40.04
15.2,1433.4375,318.1875,2276.625,354.75,1746.375,525.9375,1725.9375,537.375,37.05,40
15.3,1433.25,318.1875,2276.25,354.9375,1746.375,525.9375,1725.75,537.75,37.04,40.02
15.4,1433.0625,318.1875,2275.875,354.9375,1746.375,525.9375,1725.75,538.125,37.05,40.06
15.5,1432.6875,318.1875,2275.875,354.75,1746.375,525.75,1725.375,538.125,37.05,39.97
15.6,1432.6875,318.1875,2275.875,354.75,1746.375,525.75,1725.375,538.125,37.07,40
15.7,1432.3125,318.1875,2275.5,354.75,1746.1875,525.75,1725,537.9375,37.04,40
15.8,1432.125,318.1875,2275.3125,354.75,1746.375,525.75,1725,538.125,37.05,39.99
15.9,1431.9375,318.1875,2275.3125,354.75,1746.375,525.75,1724.8125,537.5625,37.04,39.98
16.0,1431.75,318.1875,2274.9375,354.75,1746.1875,525.5625,1724.25,537.375,37.04,40.03
16.1,1431.5625,318.1875,2274.9375,354.75,1746.375,525.5625,1724.0625,537.5625,37.05,40
16.2,1431.375,318.1875,2274.75,354.75,1746.1875,525.5625,1723.875,538.5,37.03,39.97
16.3,1431.1875,318.1875,2274.5625,354.5625,1746,525.5625,1723.6875,537.1875,37.04,40.02
16.4,1431,318.1875,2274.375,354.75,1746,525.5625,1723.875,537.375,37.04,39.98
16.5,1430.8125,318.1875,2274.1875,354.5625,1746.1875,525.5625,1723.5,537.75,37.05,39.99
16.6,1430.625,318,2274.1875,354.5625,1746.1875,525.375,1723.3125,537.75,37.03,40.03
16.7,1430.4375,318.1875,2274,354.5625,1746,525.375,1722.9375,537.5625,37.07,40.02
16.8,1430.25,318.1875,2273.625,354.75,1746,525.375,1722.75,537.75,37.05,39.99
16.9,1430.0625,318,2273.625,354.5625,1746,525.375,1722.5625,537.1875,37.03,40.03
17.0,1429.875,318.1875,2273.4375,354.5625,1746,525.375,1722.375,537.375,37.05,39.99
17.1,1429.6875,318.1875,2273.25,354.5625,1745.8125,525.1875,1722.1875,537.375,37.05,39.99
17.2,1429.5,318,2273.25,354.5625,1745.8125,525.1875,1722.1875,537.75,37.04,40
17.3,1429.3125,318,2273.0625,354.5625,1745.8125,525.1875,1722,536.8125,37.07,40
17.4,1429.125,318,2272.875,354.5625,1745.8125,525.1875,1722,537.9375,37.05,39.96
17.5,1428.75,318,2272.875,354.375,1745.8125,525,1721.8125,537.5625,37.05,39.97
17.6,1428.75,318,2272.5,354.5625,1745.625,525,1721.625,538.125,37.05,40.02
17.7,1428.5625,318.1875,2272.3125,354.5625,1745.8125,525,1721.4375,537.5625,37.05,40.02
17.8,1428.1875,318,2272.3125,354.5625,1745.625,524.8125,1721.4375,537.375,37.05,40.02
17.9,1428.1875,318,2272.3125,354.5625,1745.625,524.8125,1721.0625,536.8125,37.03,40.01
18.0,1428,318,2272.125,354.75,1745.8125,524.8125,1720.875,537.5625,37.04,40
18.1,1427.625,318,2271.9375,354.5625,1745.625,524.8125,1720.875,537.5625,37.04,40.02
18.2,1427.4375,318,2271.75,354.5625,1745.625,524.8125,1720.6875,537.5625,37.07,39.97
18.3,1427.25,318,2271.75,354.375,1745.625,524.8125,1720.5,537.75,37.07,40
18.4,1427.0625,318,2271.5625,354.5625,1745.625,524.8125,1720.5,537.1875,37.05,39.99
18.5,1427.0625,318,2271.375,354.375,1745.625,524.8125,1720.5,537.75,37.07,39.99
18.6,1426.875,318,2271.1875,354.375,1745.625,524.625,1720.125,537.75,37.04,40
18.7,1426.6875,318,2271.1875,354.375,1745.625,524.625,1720.3125,537.375,37.07,40
18.8,1426.5,318,2270.8125,354.375,1745.4375,524.625,1719.9375,537.9375,37.07,40.05
18.9,1426.3125,318,2270.8125,354.375,1745.4375,524.625,1719.5625,537.5625,37.04,40.02
19.0,1426.125,318,2270.8125,354.375,1745.25,524.4375,1719.5625,536.8125,37.04,40.04
19.1,1425.9375,317.8125,2270.625,354.375,1745.25,524.625,1719.375,538.6875,37.07,39.96
19.2,1425.75,318,2270.625,354.375,1745.25,524.4375,1719.1875,537.1875,37.07,39.97
19.3,1425.5625,318,2270.4375,354.375,1745.0625,524.4375,1719.1875,537.5625,37.07,39.99
19.4,1425.375,318,2270.0625,354.375,1745.25,524.4375,1719,538.875,37.05,39.99
19.5,1425.1875,318,2270.25,354.1875,1745.25,524.4375,1718.8125,537.9375,37.07,39.97
19.6,1425.1875,318,2270.0625,354.1875,1745.25,524.4375,1718.625,538.125,37.05,39.99
19.7,1424.8125,318,2269.875,354.375,1745.25,524.4375,1718.4375,538.875,37.04,39.93
19.8,1424.625,317.8125,2269.6875,354.375,1745.25,524.4375,1718.4375,538.125,37.04,39.97
19.9,1424.4375,317.8125,2269.5,354.1875,1745.25,524.4375,1718.25,537.375,37.05,39.96
20.0,1424.4375,318,2269.5,354.375,1745.25,524.4375,1718.25,538.3125,37.05,39.97
20.1,1424.25,318,2269.3125,354.1875,1745.4375,524.4375,1718.0625,537.1875,37.09,39.99
20.2,1424.0625,317.8125,2269.125,354.375,1745.4375,524.4375,1717.875,537.5625,37.07,40
20.3,1424.0625,317.8125,2269.125,354.1875,1745.4375,524.4375,1717.6875,538.3125,37.05,39.94
20.4,1423.875,317.8125,2268.9375,354.1875,1745.4375,524.4375,1717.5,537.375,37.05,39.97
20.5,1423.875,317.8125,2268.9375,354,1745.625,524.4375,1717.3125,537,37.04,39.96
20.6,1423.5,317.8125,2268.75,354.375,1745.625,524.4375,1717.125,537.75,37.04,39.97
20.7,1423.5,317.8125,2268.5625,354.1875,1745.625,524.625,1716.75,538.5,37.07,39.93
20.8,1423.3125,317.8125,2268.375,354.375,1745.8125,524.4375,1716.9375,538.5,37.05,39.94
20.9,1423.3125,317.8125,2268.375,354.375,1745.8125,524.625,1716.5625,538.5,37.05,39.93
21.0,1423.125,317.8125,2268.375,354.375,1746,524.625,1716.375,538.3125,37.05,39.99
21.1,1422.9375,317.8125,2268.1875,354.375,1746,524.8125,1716.1875,538.3125,37.05,39.94
21.2,1422.75,317.8125,2268.1875,354.1875,1746.1875,524.8125,1716,538.5,37.04,39.96
21.3,1422.75,317.8125,2268,354.1875,1746.1875,524.8125,1716.1875,538.5,37.04,39.91
21.4,1422.5625,317.8125,2268,354.1875,1746.375,524.8125,1716.1875,538.3125,37.05,39.96
21.5,1422.5625,317.8125,2267.8125,354.375,1746.375,525,1716,537.75,37.05,39.96
21.6,1422.375,317.8125,2267.625,354.375,1746.5625,525,1715.625,538.875,37.05,39.96
21.7,1422.375,317.8125,2267.625,354.1875,1746.5625,525,1715.4375,538.5,37.05,39.96
21.8,1422.1875,317.8125,2267.625,354.375,1746.5625,525,1715.4375,539.25,37.05,39.96
21.9,1422.1875,317.625,2267.4375,354.375,1746.5625,525.1875,1715.4375,538.3125,37.05,39.96
22.0,1422,317.8125,2267.25,354.1875,1746.75,525,1715.25,539.25,37.07,39.96
22.1,1422,317.8125,2267.25,354.1875,1746.75,525.1875,1715.0625,538.125,37.05,39.97
22.2,1421.8125,317.8125,2267.25,354.375,1746.75,525.1875,1715.0625,538.875,37.05,39.96
22.3,1421.625,318,2267.0625,354.375,1746.9375,525.375,1715.0625,539.625,37.07,39.97
22.4,1421.625,317.8125,2267.0625,354.375,1746.9375,525.375,1714.875,538.125,37.05,39.94
22.5,1421.4375,317.8125,2267.0625,354.375,1746.9375,525.1875,1714.6875,538.125,37.05,39.91
22.6,1421.4375,317.8125,2266.875,354.1875,1746.9375,525.375,1714.6875,538.6875,37.09,39.93
22.7,1421.25,317.8125,2266.875,354.1875,1746.9375,525.375,1714.5,539.0625,37.05,39.97
22.8,1421.0625,317.8125,2266.6875,354.375,1746.9375,525.375,1714.5,538.5,37.05,39.96
22.9,1421.0625,317.8125,2266.6875,354.1875,1747.125,525.375,1714.3125,539.25,37.04,39.98
23.0,1420.875,317.8125,2266.5,354.1875,1747.125,525.375,1714.125,538.5,37.07,40
23.1,1420.875,317.8125,2266.5,354.375,1746.9375,525.375,1714.125,538.6875,37.04,40.02
